,time,velocity
0,1572870282682,2.088
1,1572870283115,1.656
2,1572870283505,-0.288
3,1572870283944,0.108
4,1572870284338,0.036
5,1572870284774,0.936
6,1572870285163,1.476
7,1572870285651,1.368
8,1572870285993,1.332
9,1572870286431,1.728
10,1572870286821,1.116
11,1572870287309,-0.36
12,1572870287650,-1.368
13,1572870288088,-1.188
14,1572870288477,-0.216
15,1572870288917,0.9
16,1572870289405,1.152
17,1572870289746,0.936
18,1572870290380,0.828
19,1572870290574,0.756
20,1572870290963,1.332
21,1572870291451,0.756
22,1572870291793,0.288
23,1572870292232,0.756
24,1572870292621,1.404
25,1572870293060,1.332
26,1572870293451,1.224
27,1572870293890,1.584
28,1572870294377,1.152
29,1572870294767,0.864
30,1572870295109,0.468
31,1572870295546,-0.504
32,1572870295985,-0.144
33,1572870296376,0.9
34,1572870296766,1.584
35,1572870297204,1.728
36,1572870297594,2.232
37,1572870298033,2.088
38,1572870298423,2.52
39,1572870298960,2.016
40,1572870299252,2.196
41,1572870299790,1.944
42,1572870300080,2.088
43,1572870300520,1.8
44,1572870300957,1.8
45,1572870301396,1.692
46,1572870301935,1.908
47,1572870302226,1.44
48,1572870302569,-0.324
49,1572870302959,-0.216
50,1572870303399,0.468
51,1572870303785,1.728
52,1572870304225,1.512
53,1572870304614,1.26
54,1572870305052,0.972
55,1572870305443,0.072
56,1572870305882,0.792
57,1572870306320,0.792
58,1572870306710,1.044
59,1572870307100,1.152
60,1572870307539,2.268
61,1572870307929,2.232
62,1572870308376,2.7
63,1572870308758,2.556
64,1572870309216,2.448
65,1572870309589,1.836
66,1572870310025,2.412
67,1572870310414,1.26
68,1572870310854,0.576
69,1572870311246,0.756
70,1572870311684,1.872
71,1572870312073,1.656
72,1572870312513,1.152
73,1572870312903,0.432
74,1572870313342,0.504
75,1572870313730,1.332
76,1572870314168,1.224
77,1572870314558,2.304
78,1572870315046,2.34
79,1572870315387,2.628
80,1572870315826,2.556
81,1572870316217,2.592
82,1572870316656,2.34
83,1572870317046,1.944
84,1572870317484,2.088
85,1572870317874,2.52
86,1572870318314,2.088
87,1572870318703,2.34
88,1572870319141,1.656
89,1572870319531,0.72
90,1572870319971,-0.072
91,1572870320361,0.0
92,1572870320798,1.26
93,1572870321190,1.908
94,1572870321627,1.728
95,1572870322017,2.124
96,1572870322456,2.088
97,1572870322846,2.628
98,1572870323285,2.376
99,1572870323676,0.216
100,1572870324113,-1.26
101,1572870324505,-0.828
102,1572870324943,0.108
103,1572870325333,0.144
104,1572870325771,0.036
105,1572870326161,0.468
106,1572870326651,0.396
107,1572870326992,0.252
108,1572870327430,0.18
109,1572870327820,-0.036
110,1572870328259,-0.18
111,1572870328648,-0.036
112,1572870329086,0.108
113,1572870329476,0.036
114,1572870329914,0.396
115,1572870330305,0.828
116,1572870330744,0.72
117,1572870331133,0.432
118,1572870331572,0.9
119,1572870331962,1.296
120,1572870332401,1.044
121,1572870332791,1.188
122,1572870333230,1.332
123,1572870333620,1.08
124,1572870334058,1.764
125,1572870334448,1.728
126,1572870334887,2.376
127,1572870335277,2.556
128,1572870335667,2.196
129,1572870336106,1.872
130,1572870336496,1.872
131,1572870336935,2.268
132,1572870337374,2.016
133,1572870337764,2.304
134,1572870338154,2.52
135,1572870338594,2.664
136,1572870338985,2.52
137,1572870339423,2.448
138,1572870339813,2.232
139,1572870340251,2.268
140,1572870340692,1.656
141,1572870341080,-0.252
142,1572870341568,0.144
143,1572870342005,0.972
144,1572870342298,1.764
145,1572870342735,1.656
146,1572870343126,0.54
147,1572870343565,0.9
148,1572870343955,1.296
149,1572870344394,1.44
150,1572870344833,1.8
151,1572870345222,0.9
152,1572870345613,1.404
153,1572870346105,1.8
154,1572870346442,1.26
155,1572870346885,0.54
156,1572870347271,0.756
157,1572870347758,0.828
158,1572870348099,1.08
159,1572870348538,1.008
160,1572870348929,1.944
161,1572870349367,2.34
162,1572870349756,2.376
163,1572870350195,2.448
164,1572870350585,1.8
165,1572870351023,1.836
166,1572870351413,1.404
167,1572870351852,1.656
168,1572870352246,1.368
169,1572870352731,1.656
170,1572870353072,0.468
171,1572870353511,0.9
172,1572870353900,1.152
173,1572870354340,0.828
174,1572870354730,0.648
175,1572870355265,0.288
176,1572870355558,0.072
177,1572870356046,0.252
178,1572870356387,0.972
179,1572870356825,1.584
180,1572870357264,1.152
181,1572870357654,1.404
182,1572870358044,1.8
183,1572870358483,1.296
184,1572870358923,1.692
185,1572870359322,1.62
186,1572870359704,1.62
187,1572870360140,2.196
188,1572870360530,1.008
189,1572870360921,0.108
190,1572870361365,-0.288
191,1572870361749,-0.036
192,1572870362189,0.036
193,1572870362578,-0.036
194,1572870363016,0.0
195,1572870363406,0.0
196,1572870363845,0.036
197,1572870364235,0.0
198,1572870364674,0.252
199,1572870365066,0.9
200,1572870365503,1.152
201,1572870365893,0.936
202,1572870366333,0.792
203,1572870366723,1.548
204,1572870367162,1.224
205,1572870367551,1.296
206,1572870367989,1.764
207,1572870368390,1.296
208,1572870368817,1.332
209,1572870369207,1.008
210,1572870369646,1.152
211,1572870370036,1.764
212,1572870370475,1.476
213,1572870370864,2.052
214,1572870371303,1.728
215,1572870371694,2.376
216,1572870372133,2.556
217,1572870372523,2.484
218,1572870372962,2.484
219,1572870373351,2.268
220,1572870373790,2.016
221,1572870374180,1.656
222,1572870374619,1.62
223,1572870375010,2.376
224,1572870375447,2.016
225,1572870375839,2.916
226,1572870376276,1.908
227,1572870376666,2.016
228,1572870377105,1.98
229,1572870377495,3.06
230,1572870377934,2.628
231,1572870378325,2.412
232,1572870378763,2.484
233,1572870379152,1.872
234,1572870379592,1.764
235,1572870379981,1.692
236,1572870380420,1.764
237,1572870380810,1.728
238,1572870381249,1.44
239,1572870381638,1.728
240,1572870382077,1.512
241,1572870382468,1.548
242,1572870382906,1.296
243,1572870383296,1.224
244,1572870383735,1.656
245,1572870384125,1.512
246,1572870384564,1.62
247,1572870384954,1.764
248,1572870385393,1.836
249,1572870385783,1.908
250,1572870386221,2.052
251,1572870386612,1.548
252,1572870387051,1.584
253,1572870387441,1.692
254,1572870387879,1.656
255,1572870388269,2.016
256,1572870388707,2.16
257,1572870389097,2.232
258,1572870389536,2.016
259,1572870389926,2.016
260,1572870390365,2.232
261,1572870390755,2.34
262,1572870391194,2.736
263,1572870391584,2.34
264,1572870392022,2.16
265,1572870392412,2.016
266,1572870392852,1.692
267,1572870393243,1.98
268,1572870393680,1.512
269,1572870394070,1.584
270,1572870394509,1.332
271,1572870394898,1.368
272,1572870395337,1.188
273,1572870395727,1.656
274,1572870396166,2.484
275,1572870396557,2.196
276,1572870396995,2.196
277,1572870397386,2.16
278,1572870397775,2.124
279,1572870398214,1.872
280,1572870398604,1.728
281,1572870399043,1.944
282,1572870399432,1.404
283,1572870399871,1.008
284,1572870400262,0.864
285,1572870400700,1.152
286,1572870401090,1.08
287,1572870401529,1.116
288,1572870401919,0.54
289,1572870402358,-0.036
290,1572870402747,0.108
291,1572870403186,0.036
292,1572870403580,0.072
293,1572870404020,0.036
294,1572870404409,0.0
295,1572870404845,0.0
296,1572870405236,0.0
297,1572870405673,0.0
298,1572870406063,0.0
299,1572870406503,-0.036
300,1572870406892,0.036
301,1572870407331,0.18
302,1572870407722,-0.144
303,1572870408161,-0.072
304,1572870408550,0.036
305,1572870408989,0.036
306,1572870409396,0.036
307,1572870409815,-0.036
308,1572870410207,-0.036
309,1572870410645,0.0
310,1572870411035,0.0
311,1572870411473,-0.072
312,1572870411864,-0.036
313,1572870412302,0.0
314,1572870412692,0.108
315,1572870413131,-0.036
316,1572870413521,-0.036
317,1572870413960,0.036
318,1572870414350,-0.036
319,1572870414790,0.0
320,1572870415179,0.036
321,1572870415619,-0.036
322,1572870416008,0.0
323,1572870416447,-0.036
324,1572870416845,0.0
325,1572870417276,0.0
326,1572870417667,0.0
