,time,velocity
0,1572861046258,0.0
1,1572861046645,0.0
2,1572861047087,0.0
3,1572861047477,0.0
4,1572861047917,0.0
5,1572861048307,0.0
6,1572861048747,0.036
7,1572861049135,0.036
8,1572861049575,0.0
9,1572861049964,0.0
10,1572861050403,0.036
11,1572861050793,0.0
12,1572861051228,0.0
13,1572861051619,0.0
14,1572861052061,0.0
15,1572861052451,0.0
16,1572861052886,0.0
17,1572861053277,0.0
18,1572861053715,0.0
